# Dataset: Yield force vs spring constant
# Parameter: friction coefficient μ = 0.3
# Columns:
#   (kn r/ mg) : dimensionless spring constant
#   F : yield force

#(kn r / mg)   F
100 41.486832
200 78.232800
300 114.585807
400 150.812431
500 186.982011
600 223.120863
700 259.241217
800 295.349542
900 331.449591
1000 367.543690
2000 727.760714
3000 1088.184137
4000 1448.583915
5000 1808.973035
6000 2169.356187
7000 2529.735530
8000 2890.112215
9000 3250.486974
10000 3610.860206