# Dataset: Yield force vs friction coefficient
# Parameter: dimensionless spring constant kn r / mg = 1.0e+4
# Columns:
#   μ : friction coefficient
#   F : yield force

#μ         F
0.150000 1.543121
0.160000 1.963696
0.170000 2.470023
0.180000 3.091277
0.190000 3.871548
0.200000 4.880741
0.210000 6.236675
0.220000 8.154455
0.230000 11.072402
0.240000 16.039507
0.250000 26.312828
0.260000 58.532999
0.270000 289.798105
0.280000 904.355424
0.290000 1533.811242
0.300000 2119.199947
0.310000 2658.439568
0.320000 3154.448284
0.330000 3611.038524
0.340000 4031.020870
0.350000 4417.820526
0.360000 4774.241447
0.370000 5102.800342
0.380000 5405.754964
0.390000 5685.133476
0.400000 5942.761321