# Dataset: Yield force vs friction coefficient
# Parameter: dimensionless spring constant kn r / mg = 1.0e+3
# Columns:
#   μ : friction coefficient
#   F : yield force

#μ         F
0.150000 1.537458
0.160000 1.955173
0.170000 2.456975
0.180000 3.070837
0.190000 3.838525
0.200000 4.825138
0.210000 6.137640
0.220000 7.963705
0.230000 10.660959
0.240000 14.984589
0.250000 22.723022
0.260000 38.331573
0.270000 69.612650
0.280000 117.043498
0.290000 170.896974
0.300000 224.468547
0.310000 275.400847
0.320000 323.030914
0.330000 367.272516
0.340000 408.242905
0.350000 446.130116
0.360000 481.141591
0.370000 513.483166
0.380000 543.350459
0.390000 570.925652
0.400000 596.376727